[version]
1 0	Fichier graphe 2D version 1.0
[ecran]
1
[ecran1]
[cadrage1]
X
Y
-1.00000000000000E+0001
 1.00000000000000E+0001
-1.00000000000000E+0001
 1.00000000000000E+0001
 0.00000000000000E+0000
 0.00000000000000E+0000
 2.00000000000000E+0000
 2.00000000000000E+0000
1
0
0
0
10
10
0
[Chaine1]
2
X
0
10
 1.00000000000000E+0001
-1.00000000000000E+0001
 0.00000000000000E+0000
 0.00000000000000E+0000
0
7
16
0
0
0
 0.00000000000000E+0000
Y
0
10
-1.00000000000000E+0001
 1.00000000000000E+0001
 0.00000000000000E+0000
 0.00000000000000E+0000
0
9
16
0
0
0
 0.00000000000000E+0000
[tableau]
	A	B	C	D	E	F
Nom	A	B	C	D	E	F
1	380	0.1076	380	0.1281		
2	381	0.09780	381	0.1295		
3	382	0.09860	382	0.1345		
4	383	0.09890	383	0.1335		
5	384	0.09950	384	0.1409		
6	385	0.09940	385	0.1440		
7	386	0.09550	386	0.1485		
8	387	0.09540	387	0.1499		
9	388	0.09480	388	0.1549		
10	389	0.09420	389	0.1597		
11	390	0.09000	390	0.1630		
12	391	0.08930	391	0.1647		
13	392	0.08630	392	0.1726		
14	393	0.08350	393	0.1756		
15	394	0.08230	394	0.1772		
16	395	0.07770	395	0.1830		
17	396	0.07500	396	0.1883		
18	397	0.07060	397	0.1918		
19	398	0.06860	398	0.1948		
20	399	0.06380	399	0.2008	380	0.1085
21	400	0.06200	400	0.2059	381	0.1104
22	401	0.05690	401	0.2122	382	0.1136
23	402	0.05560	402	0.2143	383	0.1126
24	403	0.05030	403	0.2198	384	0.1194
25	404	0.04700	404	0.2231	385	0.1211
26	405	0.04150	405	0.2298	386	0.1231
27	406	0.03970	406	0.2312	387	0.1246
28	407	0.03630	407	0.2362	388	0.1247
29	408	0.03340	408	0.2412	389	0.1283
30	409	0.03050	409	0.2470	390	0.1309
31	410	0.02920	410	0.2487	391	0.1304
32	411	0.02690	411	0.2530	392	0.1342
33	412	0.02360	412	0.2576	393	0.1348
34	413	0.02340	413	0.2593	394	0.1349
35	414	0.01970	414	0.2644	395	0.1381
36	415	0.01960	415	0.2682	396	0.1401
37	416	0.01550	416	0.2726	397	0.1423
38	417	0.01660	417	0.2745	398	0.1424
39	418	0.01580	418	0.2789	399	0.1446
40	419	0.01290	419	0.2818	400	0.1465
41	420	0.01310	420	0.2859	401	0.1504
42	421	0.01270	421	0.2873	402	0.1508
43	422	0.01110	422	0.2910	403	0.1528
44	423	0.01030	423	0.2929	404	0.1536
45	424	0.01030	424	0.2973	405	0.1560
46	425	0.009300	425	0.2978	406	0.1563
47	426	0.009000	426	0.2998	407	0.1590
48	427	0.009700	427	0.3023	408	0.1595
49	428	0.009400	428	0.3042	409	0.1625
50	429	0.009400	429	0.3051	410	0.1633
51	430	0.008800	430	0.3067	411	0.1660
52	431	0.009600	431	0.3077	412	0.1686
53	432	0.009400	432	0.3091	413	0.1686
54	433	0.009700	433	0.3097	414	0.1705
55	434	0.009800	434	0.3098	415	0.1733
56	435	0.009900	435	0.3103	416	0.1744
57	436	0.010000	436	0.3102	417	0.1760
58	437	0.009600	437	0.3099	418	0.1795
59	438	0.01030	438	0.3103	419	0.1795
60	439	0.01090	439	0.3105	420	0.1825
61	440	0.01060	440	0.3080	421	0.1822
62	441	0.01170	441	0.3086	422	0.1840
63	442	0.01220	442	0.3075	423	0.1848
64	443	0.01280	443	0.3065	424	0.1873
65	444	0.01380	444	0.3035	425	0.1873
66	445	0.01380	445	0.3037	426	0.1885
67	446	0.01430	446	0.3010	427	0.1907
68	447	0.01490	447	0.2988	428	0.1920
69	448	0.01640	448	0.2976	429	0.1926
70	449	0.01640	449	0.2961	430	0.1929
71	450	0.01720	450	0.2927	431	0.1944
72	451	0.01900	451	0.2903	432	0.1953
73	452	0.01900	452	0.2854	433	0.1949
74	453	0.01930	453	0.2855	434	0.1960
75	454	0.02040	454	0.2809	435	0.1958
76	455	0.02180	455	0.2781	436	0.1955
77	456	0.02320	456	0.2734	437	0.1945
78	457	0.02310	457	0.2718	438	0.1954
79	458	0.02370	458	0.2670	439	0.1960
80	459	0.02520	459	0.2627	440	0.1949
81	460	0.02580	460	0.2568	441	0.1945
82	461	0.02690	461	0.2562	442	0.1938
83	462	0.02830	462	0.2506	443	0.1932
84	463	0.02940	463	0.2457	444	0.1929
85	464	0.03140	464	0.2403	445	0.1924
86	465	0.03200	465	0.2384	446	0.1904
87	466	0.03270	466	0.2329	447	0.1898
88	467	0.03400	467	0.2274	448	0.1890
89	468	0.03550	468	0.2222	449	0.1881
90	469	0.03590	469	0.2207	450	0.1865
91	470	0.03820	470	0.2133	451	0.1848
92	471	0.03940	471	0.2090	452	0.1818
93	472	0.04100	472	0.2022	453	0.1820
94	473	0.04320	473	0.1960	454	0.1786
95	474	0.04450	474	0.1957	455	0.1780
96	475	0.04700	475	0.1882	456	0.1751
97	476	0.04810	476	0.1832	457	0.1738
98	477	0.05060	477	0.1769	458	0.1710
99	478	0.05110	478	0.1746	459	0.1690
100	479	0.05370	479	0.1688	460	0.1653
101	480	0.05630	480	0.1646	461	0.1642
102	481	0.05870	481	0.1580	462	0.1617
103	482	0.05910	482	0.1562	463	0.1600
104	483	0.06210	483	0.1491	464	0.1558
105	484	0.06420	484	0.1451	465	0.1549
106	485	0.06760	485	0.1386	466	0.1515
107	486	0.06830	486	0.1366	467	0.1490
108	487	0.07120	487	0.1315	468	0.1459
109	488	0.07380	488	0.1267	469	0.1452
110	489	0.07740	489	0.1214	470	0.1411
111	490	0.08070	490	0.1155	471	0.1388
112	491	0.08170	491	0.1138	472	0.1351
113	492	0.08510	492	0.1092	473	0.1320
114	493	0.08740	493	0.1046	474	0.1318
115	494	0.09140	494	0.09970	475	0.1284
116	495	0.09260	495	0.09820	476	0.1261
117	496	0.09690	496	0.09260	477	0.1225
118	497	0.09960	497	0.08920	478	0.1213
119	498	0.1032	498	0.08450	479	0.1184
120	499	0.1049	499	0.08320	480	0.1164
121	500	0.1083	500	0.07860	481	0.1125
122	501	0.1135	501	0.07410	482	0.1118
123	502	0.1165	502	0.07100	483	0.1072
124	503	0.1209	503	0.06760	484	0.1059
125	504	0.1221	504	0.06580	485	0.1025
126	505	0.1271	505	0.06260	486	0.1014
127	506	0.1311	506	0.05930	487	0.09900
128	507	0.1366	507	0.05580	488	0.09690
129	508	0.1373	508	0.05480	489	0.09430
130	509	0.1433	509	0.05130	490	0.09180
131	510	0.1469	510	0.04900	491	0.09140
132	511	0.1522	511	0.04530	492	0.08910
133	512	0.1582	512	0.04250	493	0.08710
134	513	0.1599	513	0.04210	494	0.08500
135	514	0.1667	514	0.03850	495	0.08500
136	515	0.1711	515	0.03660	496	0.08290
137	516	0.1774	516	0.03420	497	0.08190
138	517	0.1797	517	0.03350	498	0.08010
139	518	0.1857	518	0.03100	499	0.07990
140	519	0.1930	519	0.02820	500	0.07800
141	520	0.1986	520	0.02720	501	0.07640
142	521	0.2054	521	0.02480	502	0.07540
143	522	0.2078	522	0.02410	503	0.07510
144	523	0.2153	523	0.02280	504	0.07410
145	524	0.2210	524	0.02110	505	0.07360
146	525	0.2286	525	0.01940	506	0.07320
147	526	0.2306	526	0.01910	507	0.07280
148	527	0.2405	527	0.01700	508	0.07210
149	528	0.2484	528	0.01620	509	0.07220
150	529	0.2548	529	0.01530	510	0.07220
151	530	0.2637	530	0.01340	511	0.07150
152	531	0.2659	531	0.01390	512	0.07130
153	532	0.2767	532	0.01240	513	0.07170
154	533	0.2827	533	0.01170	514	0.07160
155	534	0.2916	534	0.01040	515	0.07230
156	535	0.3020	535	0.009600	516	0.07270
157	536	0.3037	536	0.009200	517	0.07270
158	537	0.3158	537	0.008000	518	0.07370
159	538	0.3220	538	0.007800	519	0.07430
160	539	0.3317	539	0.007000	520	0.07490
161	540	0.3425	540	0.006600	521	0.07610
162	541	0.3447	541	0.006000	522	0.07670
163	542	0.3569	542	0.005200	523	0.07790
164	543	0.3633	543	0.005000	524	0.07860
165	544	0.3740	544	0.004400	525	0.08090
166	545	0.3782	545	0.004200	526	0.08130
167	546	0.3877	546	0.003700	527	0.08260
168	547	0.3998	547	0.003900	528	0.08510
169	548	0.4057	548	0.003500	529	0.08610
170	549	0.4163	549	0.002100	530	0.08830
171	550	0.4210	550	0.002600	531	0.08940
172	551	0.4300	551	0.002200	532	0.09200
173	552	0.4419	552	0.001500	533	0.09370
174	553	0.4487	553	0.001600	534	0.09630
175	554	0.4601	554	0.001700	535	0.09820
176	555	0.4636	555	0.001300	536	0.09920
177	556	0.4730	556	0.001100	537	0.1021
178	557	0.4869	557	0.001300	538	0.1043
179	558	0.4934	558	0.001100	539	0.1072
180	559	0.5050	559	 7.000E-04	540	0.1107
181	560	0.5104	560	 6.000E-04	541	0.1106
182	561	0.5213	561	 6.000E-04	542	0.1146
183	562	0.5314	562	 3.000E-04	543	0.1159
184	563	0.5451	563	 3.000E-04	544	0.1195
185	564	0.5587	564	0	545	0.1212
186	565	0.5648	565	 8.000E-04	546	0.1237
187	566	0.5795	566	 4.000E-04	547	0.1278
188	567	0.5965	567	0	548	0.1301
189	568	0.6074	568	0	549	0.1324
190	569	0.6259	569	0	550	0.1343
191	570	0.6317	570	0	551	0.1371
192	571	0.6497	571	 3.000E-04	552	0.1408
193	572	0.6712	572	0	553	0.1433
194	573	0.6851	573	0	554	0.1470
195	574	0.7064	574	0	555	0.1483
196	575	0.7142	575	 3.000E-04	556	0.1515
197	576	0.7349	576	 3.000E-04	557	0.1559
198	577	0.7607	577	 3.000E-04	558	0.1580
199	578	0.7765	578	 3.000E-04	559	0.1612
200	579	0.7979	579	 1.000E-04	560	0.1632
201	580	0.8070	580	 3.000E-04	561	0.1675
202	581	0.8296	581	 3.000E-04	562	0.1702
203	582	0.8544	582	0	563	0.1754
204	583	0.8698	583	 8.000E-04	564	0.1797
205	584	0.8876	584	 9.000E-04	565	0.1820
206	585	0.9066	585	0.001600	566	0.1868
207	586	0.9098	586	0.001300	567	0.1925
208	587	0.9266	587	0.001600	568	0.1962
209	588	0.9335	588	0.001900	569	0.2020
210	589	0.9428	589	0.001900	570	0.2046
211	590	0.9473	590	0.001600	571	0.2110
212	591	0.9486	591	 6.000E-04	572	0.2181
213	592	0.9480	592	0.002000	573	0.2225
214	593	0.9416	593	 9.000E-04	574	0.2296
215	594	0.9357	594	0.001600	575	0.2331
216	595	0.9204	595	 8.000E-04	576	0.2399
217	596	0.9144	596	 3.000E-04	577	0.2486
218	597	0.8918	597	 3.000E-04	578	0.2535
219	598	0.8687	598	 2.000E-04	579	0.2604
220	599	0.8464	599	0.001600	580	0.2639
221	600	0.8170	600	0.0010000	581	0.2718
222	601	0.7815	601	0.001200	582	0.2798
223	602	0.7647	602	 5.000E-04	583	0.2849
224	603	0.7329	603	0	584	0.2912
225	604	0.6822	604	0	585	0.2975
226	605	0.6597	605	0	586	0.2987
227	606	0.6141	606	0	587	0.3041
228	607	0.5944	607	0	588	0.3071
229	608	0.5572	608	0	589	0.3095
230	609	0.5077	609	0	590	0.3112
231	610	0.4878	610	0	591	0.3116
232	611	0.4456	611	0	592	0.3113
233	612	0.4080	612	0	593	0.3091
234	613	0.3946	613	0	594	0.3076
235	614	0.3552	614	0	595	0.3024
236	615	0.3257	615	0	596	0.3006
237	616	0.3045	616	0	597	0.2931
238	617	0.2759	617	0	598	0.2854
239	618	0.2497	618	0	599	0.2799
240	619	0.2367	619	0	600	0.2698
241	620	0.2148	620	0	601	0.2581
242	621	0.1896	621	0	602	0.2520
243	622	0.1796	622	0	603	0.2407
244	623	0.1599	623	0	604	0.2244
245	624	0.1426	624	0	605	0.2173
246	625	0.1381	625	0	606	0.2012
247	626	0.1211	626	0	607	0.1951
248	627	0.1092	627	0	608	0.1819
249	628	0.1005	628	0	609	0.1650
250	629	0.08980	629	0	610	0.1577
251	630	0.07990	630	0	611	0.1429
252	631	0.07530	631	0	612	0.1303
253	632	0.06670	632	0	613	0.1256
254	633	0.05830	633	0	614	0.1114
255	634	0.05480	634	0	615	0.1003
256	635	0.04790	635	0	616	0.09300
257	636	0.04220	636	0	617	0.08330
258	637	0.04190	637	0	618	0.07370
259	638	0.03550	638	0	619	0.06890
260	639	0.03250	639	0	620	0.06120
261	640	0.02930	640	0	621	0.05170
262	641	0.02340	641	0	622	0.04800
263	642	0.02070	642	0	623	0.04050
264	643	0.01880	643	0	624	0.03480
265	644	0.01580	644	0	625	0.03340
266	645	0.01360	645	0	626	0.02700
267	646	0.01350	646	0	627	0.02250
268	647	0.01150	647	0	628	0.01950
269	648	0.01010	648	0	629	0.01610
270	649	0.009500	649	0	630	0.01280
271	650	0.008200	650	0	631	0.01140
272	651	0.005900	651	0	632	0.007900
273	652	0.006400	652	0	633	0.005200
274	653	0.005700	653	0	634	0.004000
275	654	0.004800	654	0	635	0.0010000
276	655	0.003500	655	0	636	0
277	656	0.002900	656	0	637	0
278	657	0.001500	657	0	638	0
279	658	 6.000E-04	658	0	639	0
280	659	0.001500	659	0	640	0
281	660	0.001500	660	0	641	0
282					642	0
283					643	0
284					644	0
285					645	0
286					646	0
287					647	0
288					648	0
289					649	0
290					650	0
291					651	0
292					652	0
293					653	0
294					654	0
295					655	0
296					656	0
297					657	0
298					658	0
299					659	0
300					660	0
[fin]
