[version]
1 0	Fichier graphe 2D version 1.0
[tableau]
	A	B
Nom	A	B
1	380	0.1076
2	381	0.09780
3	382	0.09860
4	383	0.09890
5	384	0.09950
6	385	0.09940
7	386	0.09550
8	387	0.09540
9	388	0.09480
10	389	0.09420
11	390	0.09000
12	391	0.08930
13	392	0.08630
14	393	0.08350
15	394	0.08230
16	395	0.07770
17	396	0.07500
18	397	0.07060
19	398	0.06860
20	399	0.06380
21	400	0.06200
22	401	0.05690
23	402	0.05560
24	403	0.05030
25	404	0.04700
26	405	0.04150
27	406	0.03970
28	407	0.03630
29	408	0.03340
30	409	0.03050
31	410	0.02920
32	411	0.02690
33	412	0.02360
34	413	0.02340
35	414	0.01970
36	415	0.01960
37	416	0.01550
38	417	0.01660
39	418	0.01580
40	419	0.01290
41	420	0.01310
42	421	0.01270
43	422	0.01110
44	423	0.01030
45	424	0.01030
46	425	0.009300
47	426	0.009000
48	427	0.009700
49	428	0.009400
50	429	0.009400
51	430	0.008800
52	431	0.009600
53	432	0.009400
54	433	0.009700
55	434	0.009800
56	435	0.009900
57	436	0.010000
58	437	0.009600
59	438	0.01030
60	439	0.01090
61	440	0.01060
62	441	0.01170
63	442	0.01220
64	443	0.01280
65	444	0.01380
66	445	0.01380
67	446	0.01430
68	447	0.01490
69	448	0.01640
70	449	0.01640
71	450	0.01720
72	451	0.01900
73	452	0.01900
74	453	0.01930
75	454	0.02040
76	455	0.02180
77	456	0.02320
78	457	0.02310
79	458	0.02370
80	459	0.02520
81	460	0.02580
82	461	0.02690
83	462	0.02830
84	463	0.02940
85	464	0.03140
86	465	0.03200
87	466	0.03270
88	467	0.03400
89	468	0.03550
90	469	0.03590
91	470	0.03820
92	471	0.03940
93	472	0.04100
94	473	0.04320
95	474	0.04450
96	475	0.04700
97	476	0.04810
98	477	0.05060
99	478	0.05110
100	479	0.05370
101	480	0.05630
102	481	0.05870
103	482	0.05910
104	483	0.06210
105	484	0.06420
106	485	0.06760
107	486	0.06830
108	487	0.07120
109	488	0.07380
110	489	0.07740
111	490	0.08070
112	491	0.08170
113	492	0.08510
114	493	0.08740
115	494	0.09140
116	495	0.09260
117	496	0.09690
118	497	0.09960
119	498	0.1032
120	499	0.1049
121	500	0.1083
122	501	0.1135
123	502	0.1165
124	503	0.1209
125	504	0.1221
126	505	0.1271
127	506	0.1311
128	507	0.1366
129	508	0.1373
130	509	0.1433
131	510	0.1469
132	511	0.1522
133	512	0.1582
134	513	0.1599
135	514	0.1667
136	515	0.1711
137	516	0.1774
138	517	0.1797
139	518	0.1857
140	519	0.1930
141	520	0.1986
142	521	0.2054
143	522	0.2078
144	523	0.2153
145	524	0.2210
146	525	0.2286
147	526	0.2306
148	527	0.2405
149	528	0.2484
150	529	0.2548
151	530	0.2637
152	531	0.2659
153	532	0.2767
154	533	0.2827
155	534	0.2916
156	535	0.3020
157	536	0.3037
158	537	0.3158
159	538	0.3220
160	539	0.3317
161	540	0.3425
162	541	0.3447
163	542	0.3569
164	543	0.3633
165	544	0.3740
166	545	0.3782
167	546	0.3877
168	547	0.3998
169	548	0.4057
170	549	0.4163
171	550	0.4210
172	551	0.4300
173	552	0.4419
174	553	0.4487
175	554	0.4601
176	555	0.4636
177	556	0.4730
178	557	0.4869
179	558	0.4934
180	559	0.5050
181	560	0.5104
182	561	0.5213
183	562	0.5314
184	563	0.5451
185	564	0.5587
186	565	0.5648
187	566	0.5795
188	567	0.5965
189	568	0.6074
190	569	0.6259
191	570	0.6317
192	571	0.6497
193	572	0.6712
194	573	0.6851
195	574	0.7064
196	575	0.7142
197	576	0.7349
198	577	0.7607
199	578	0.7765
200	579	0.7979
201	580	0.8070
202	581	0.8296
203	582	0.8544
204	583	0.8698
205	584	0.8876
206	585	0.9066
207	586	0.9098
208	587	0.9266
209	588	0.9335
210	589	0.9428
211	590	0.9473
212	591	0.9486
213	592	0.9480
214	593	0.9416
215	594	0.9357
216	595	0.9204
217	596	0.9144
218	597	0.8918
219	598	0.8687
220	599	0.8464
221	600	0.8170
222	601	0.7815
223	602	0.7647
224	603	0.7329
225	604	0.6822
226	605	0.6597
227	606	0.6141
228	607	0.5944
229	608	0.5572
230	609	0.5077
231	610	0.4878
232	611	0.4456
233	612	0.4080
234	613	0.3946
235	614	0.3552
236	615	0.3257
237	616	0.3045
238	617	0.2759
239	618	0.2497
240	619	0.2367
241	620	0.2148
242	621	0.1896
243	622	0.1796
244	623	0.1599
245	624	0.1426
246	625	0.1381
247	626	0.1211
248	627	0.1092
249	628	0.1005
250	629	0.08980
251	630	0.07990
252	631	0.07530
253	632	0.06670
254	633	0.05830
255	634	0.05480
256	635	0.04790
257	636	0.04220
258	637	0.04190
259	638	0.03550
260	639	0.03250
261	640	0.02930
262	641	0.02340
263	642	0.02070
264	643	0.01880
265	644	0.01580
266	645	0.01360
267	646	0.01350
268	647	0.01150
269	648	0.01010
270	649	0.009500
271	650	0.008200
272	651	0.005900
273	652	0.006400
274	653	0.005700
275	654	0.004800
276	655	0.003500
277	656	0.002900
278	657	0.001500
279	658	 6.000E-04
280	659	0.001500
281	660	0.001500
[fin]
